   Position                    Intensity
 6.61259579059872E+0003	 2.68042827420162E-0006
 6.61259697912180E+0003	 2.76658970335389E-0006
 6.61259816764489E+0003	 2.85516703228787E-0006
 6.61259935616797E+0003	 2.94621648764442E-0006
 6.61260054469106E+0003	 3.03979527627083E-0006
 6.61260173321414E+0003	 3.13596159450711E-0006
 6.61260292173723E+0003	 3.23477463742408E-0006
 6.61260411026031E+0003	 3.33629460801253E-0006
 6.61260529878339E+0003	 3.44058272632306E-0006
 6.61260648730648E+0003	 3.54770123855615E-0006
 6.61260767582956E+0003	 3.65771342610260E-0006
 6.61260886435265E+0003	 3.77068361453393E-0006
 6.61261005287573E+0003	 3.88667718254333E-0006
 6.61261124139881E+0003	 4.00576057083725E-0006
 6.61261242992190E+0003	 4.12800129097827E-0006
 6.61261361844498E+0003	 4.25346793418006E-0006
 6.61261480696807E+0003	 4.38223018005509E-0006
 6.61261599549115E+0003	 4.51435880531671E-0006
 6.61261718401424E+0003	 4.64992569243623E-0006
 6.61261837253732E+0003	 4.78900383825727E-0006
 6.61261956106040E+0003	 4.93166736256862E-0006
 6.61262074958349E+0003	 5.07799151663776E-0006
 6.61262193810657E+0003	 5.22805269170744E-0006
 6.61262312662966E+0003	 5.38192842745725E-0006
 6.61262431515274E+0003	 5.53969742043350E-0006
 6.61262550367583E+0003	 5.70143953244985E-0006
 6.61262669219891E+0003	 5.86723579896205E-0006
 6.61262788072199E+0003	 6.03716843742024E-0006
 6.61262906924508E+0003	 6.21132085560242E-0006
 6.61263025776816E+0003	 6.38977765993320E-0006
 6.61263144629125E+0003	 6.57262466379185E-0006
 6.61263263481433E+0003	 6.75994889581444E-0006
 6.61263382333742E+0003	 6.95183860819465E-0006
 6.61263501186050E+0003	 7.14838328498848E-0006
 6.61263620038358E+0003	 7.34967365042836E-0006
 6.61263738890667E+0003	 7.55580167725214E-0006
 6.61263857742975E+0003	 7.76686059505323E-0006
 6.61263976595284E+0003	 7.98294489865822E-0006
 6.61264095447592E+0003	 8.20415035653861E-0006
 6.61264214299901E+0003	 8.43057401926369E-0006
 6.61264333152209E+0003	 8.66231422800216E-0006
 6.61264452004517E+0003	 8.89947062308001E-0006
 6.61264570856826E+0003	 9.14214415260298E-0006
 6.61264689709134E+0003	 9.39043708115208E-0006
 6.61264808561443E+0003	 9.64445299856078E-0006
 6.61264927413751E+0003	 9.90429682878371E-0006
 6.61265046266059E+0003	 1.01700748388665E-0005
 6.61265165118368E+0003	 1.04418946480260E-0005
 6.61265283970676E+0003	 1.07198652368529E-0005
 6.61265402822985E+0003	 1.10040969566467E-0005
 6.61265521675293E+0003	 1.12947015388951E-0005
 6.61265640527602E+0003	 1.15917921049092E-0005
 6.61265759379910E+0003	 1.18954831756276E-0005
 6.61265878232218E+0003	 1.22058906816024E-0005
 6.61265997084527E+0003	 1.25231319731794E-0005
 6.61266115936835E+0003	 1.28473258308883E-0005
 6.61266234789144E+0003	 1.31785924760563E-0005
 6.61266353641452E+0003	 1.35170535816605E-0005
 6.61266472493761E+0003	 1.38628322834351E-0005
 6.61266591346069E+0003	 1.42160531912498E-0005
 6.61266710198377E+0003	 1.45768424007758E-0005
 6.61266829050686E+0003	 1.49453275054581E-0005
 6.61266947902994E+0003	 1.53216376088119E-0005
 6.61267066755303E+0003	 1.57059033370622E-0005
 6.61267185607611E+0003	 1.60982568521465E-0005
 6.61267304459920E+0003	 1.64988318651011E-0005
 6.61267423312228E+0003	 1.69077636498536E-0005
 6.61267542164536E+0003	 1.73251890574413E-0005
 6.61267661016845E+0003	 1.77512465306814E-0005
 6.61267779869153E+0003	 1.81860761193155E-0005
 6.61267898721462E+0003	 1.86298194956535E-0005
 6.61268017573770E+0003	 1.90826199707432E-0005
 6.61268136426078E+0003	 1.95446225110923E-0005
 6.61268255278387E+0003	 2.00159737559714E-0005
 6.61268374130695E+0003	 2.04968220353256E-0005
 6.61268492983004E+0003	 2.09873173883275E-0005
 6.61268611835312E+0003	 2.14876115826003E-0005
 6.61268730687621E+0003	 2.19978581341459E-0005
 6.61268849539929E+0003	 2.25182123280109E-0005
 6.61268968392237E+0003	 2.30488312397261E-0005
 6.61269087244546E+0003	 2.35898737575566E-0005
 6.61269206096854E+0003	 2.41415006056003E-0005
 6.61269324949163E+0003	 2.47038743677758E-0005
 6.61269443801471E+0003	 2.52771595127385E-0005
 6.61269562653780E+0003	 2.58615224197718E-0005
 6.61269681506088E+0003	 2.64571314056947E-0005
 6.61269800358396E+0003	 2.70641567528355E-0005
 6.61269919210705E+0003	 2.76827707381170E-0005
 6.61270038063013E+0003	 2.83131476633068E-0005
 6.61270156915322E+0003	 2.89554638864839E-0005
 6.61270275767630E+0003	 2.96098978547762E-0005
 6.61270394619939E+0003	 3.02766301384263E-0005
 6.61270513472247E+0003	 3.09558434662459E-0005
 6.61270632324555E+0003	 3.16477227625183E-0005
 6.61270751176864E+0003	 3.23524551854162E-0005
 6.61270870029172E+0003	 3.30702301669999E-0005
 6.61270988881481E+0003	 3.38012394548662E-0005
 6.61271107733789E+0003	 3.45456771555213E-0005
 6.61271226586098E+0003	 3.53037397795519E-0005
 6.61271345438406E+0003	 3.60756262886756E-0005
 6.61271464290714E+0003	 3.68615381447499E-0005
 6.61271583143023E+0003	 3.76616793608274E-0005
 6.61271701995331E+0003	 3.84762565543454E-0005
 6.61271820847640E+0003	 3.93054790025411E-0005
 6.61271939699948E+0003	 4.01495587001919E-0005
 6.61272058552256E+0003	 4.10087104197776E-0005
 6.61272177404565E+0003	 4.18831517741715E-0005
 6.61272296256873E+0003	 4.27731032819670E-0005
 6.61272415109182E+0003	 4.36787884355544E-0005
 6.61272533961490E+0003	 4.46004337720655E-0005
 6.61272652813799E+0003	 4.55382689473062E-0005
 6.61272771666107E+0003	 4.64925268128068E-0005
 6.61272890518415E+0003	 4.74634434961219E-0005
 6.61273009370724E+0003	 4.84512584845166E-0005
 6.61273128223032E+0003	 4.94562147121828E-0005
 6.61273247075341E+0003	 5.04785586511338E-0005
 6.61273365927649E+0003	 5.15185404059352E-0005
 6.61273484779958E+0003	 5.25764138124258E-0005
 6.61273603632266E+0003	 5.36524365406041E-0005
 6.61273722484574E+0003	 5.47468702018461E-0005
 6.61273841336883E+0003	 5.58599804606424E-0005
 6.61273960189191E+0003	 5.69920371510331E-0005
 6.61274079041500E+0003	 5.81433143979430E-0005
 6.61274197893808E+0003	 5.93140907436133E-0005
 6.61274316746117E+0003	 6.05046492793411E-0005
 6.61274435598425E+0003	 6.17152777827446E-0005
 6.61274554450733E+0003	 6.29462688607774E-0005
 6.61274673303042E+0003	 6.41979200987258E-0005
 6.61274792155350E+0003	 6.54705342154344E-0005
 6.61274911007659E+0003	 6.67644192250045E-0005
 6.61275029859967E+0003	 6.80798886052311E-0005
 6.61275148712275E+0003	 6.94172614730468E-0005
 6.61275267564584E+0003	 7.07768627672473E-0005
 6.61275386416892E+0003	 7.21590234387920E-0005
 6.61275505269201E+0003	 7.35640806489775E-0005
 6.61275624121509E+0003	 7.49923779757897E-0005
 6.61275742973818E+0003	 7.64442656287591E-0005
 6.61275861826126E+0003	 7.79201006726447E-0005
 6.61275980678434E+0003	 7.94202472602937E-0005
 6.61276099530743E+0003	 8.09450768750245E-0005
 6.61276218383051E+0003	 8.24949685829017E-0005
 6.61276337235360E+0003	 8.40703092952763E-0005
 6.61276456087668E+0003	 8.56714940419837E-0005
 6.61276574939977E+0003	 8.72989262555944E-0005
 6.61276693792285E+0003	 8.89530180671386E-0005
 6.61276812644593E+0003	 9.06341906137239E-0005
 6.61276931496902E+0003	 9.23428743584896E-0005
 6.61277050349210E+0003	 9.40795094233509E-0005
 6.61277169201519E+0003	 9.58445459349951E-0005
 6.61277288053827E+0003	 9.76384443846147E-0005
 6.61277406906136E+0003	 9.94616760018688E-0005
 6.61277525758444E+0003	 1.01314723143581E-0004
 6.61277644610752E+0003	 1.03198079697699E-0004
 6.61277763463061E+0003	 1.05112251503047E-0004
 6.61277882315369E+0003	 1.07057756785428E-0004
 6.61278001167678E+0003	 1.09035126610646E-0004
 6.61278120019986E+0003	 1.11044905355015E-0004
 6.61278238872295E+0003	 1.13087651193972E-0004
 6.61278357724603E+0003	 1.15163936609384E-0004
 6.61278476576911E+0003	 1.17274348916201E-0004
 6.61278595429220E+0003	 1.19419490809073E-0004
 6.61278714281528E+0003	 1.21599980929604E-0004
 6.61278833133837E+0003	 1.23816454454916E-0004
 6.61278951986145E+0003	 1.26069563708207E-0004
 6.61279070838453E+0003	 1.28359978792012E-0004
 6.61279189690762E+0003	 1.30688388244887E-0004
 6.61279308543070E+0003	 1.33055499722242E-0004
 6.61279427395379E+0003	 1.35462040702098E-0004
 6.61279546247687E+0003	 1.37908759216506E-0004
 6.61279665099996E+0003	 1.40396424609432E-0004
 6.61279783952304E+0003	 1.42925828321891E-0004
 6.61279902804612E+0003	 1.45497784705151E-0004
 6.61280021656921E+0003	 1.48113131862824E-0004
 6.61280140509229E+0003	 1.50772732522693E-0004
 6.61280259361538E+0003	 1.53477474939131E-0004
 6.61280378213846E+0003	 1.56228273826962E-0004
 6.61280497066155E+0003	 1.59026071327678E-0004
 6.61280615918463E+0003	 1.61871838008874E-0004
 6.61280734770771E+0003	 1.64766573897831E-0004
 6.61280853623080E+0003	 1.67711309550159E-0004
 6.61280972475388E+0003	 1.70707107154425E-0004
 6.61281091327697E+0003	 1.73755061673723E-0004
 6.61281210180005E+0003	 1.76856302025122E-0004
 6.61281329032314E+0003	 1.80011992297971E-0004
 6.61281447884622E+0003	 1.83223333012016E-0004
 6.61281566736930E+0003	 1.86491562416316E-0004
 6.61281685589239E+0003	 1.89817957829957E-0004
 6.61281804441547E+0003	 1.93203837025535E-0004
 6.61281923293856E+0003	 1.96650559656421E-0004
 6.61282042146164E+0003	 2.00159528728819E-0004
 6.61282160998473E+0003	 2.03732192119603E-0004
 6.61282279850781E+0003	 2.07370044140973E-0004
 6.61282398703089E+0003	 2.11074627152911E-0004
 6.61282517555398E+0003	 2.14847533224483E-0004
 6.61282636407706E+0003	 2.18690405844964E-0004
 6.61282755260015E+0003	 2.22604941685827E-0004
 6.61282874112323E+0003	 2.26592892414582E-0004
 6.61282992964631E+0003	 2.30656066561479E-0004
 6.61283111816940E+0003	 2.34796331440052E-0004
 6.61283230669248E+0003	 2.39015615122518E-0004
 6.61283349521557E+0003	 2.43315908470985E-0004
 6.61283468373865E+0003	 2.47699267225442E-0004
 6.61283587226174E+0003	 2.52167814149496E-0004
 6.61283706078482E+0003	 2.56723741234769E-0004
 6.61283824930790E+0003	 2.61369311964909E-0004
 6.61283943783099E+0003	 2.66106863640096E-0004
 6.61284062635407E+0003	 2.70938809762923E-0004
 6.61284181487716E+0003	 2.75867642486541E-0004
 6.61284300340024E+0003	 2.80895935125872E-0004
 6.61284419192333E+0003	 2.86026344732710E-0004
 6.61284538044641E+0003	 2.91261614735515E-0004
 6.61284656896949E+0003	 2.96604577644597E-0004
 6.61284775749258E+0003	 3.02058157823466E-0004
 6.61284894601566E+0003	 3.07625374326981E-0004
 6.61285013453875E+0003	 3.13309343806970E-0004
 6.61285132306183E+0003	 3.19113283485900E-0004
 6.61285251158492E+0003	 3.25040514199177E-0004
 6.61285370010800E+0003	 3.31094463506578E-0004
 6.61285488863108E+0003	 3.37278668873264E-0004
 6.61285607715417E+0003	 3.43596780920821E-0004
 6.61285726567725E+0003	 3.50052566748657E-0004
 6.61285845420034E+0003	 3.56649913326081E-0004
 6.61285964272342E+0003	 3.63392830955283E-0004
 6.61286083124650E+0003	 3.70285456805433E-0004
 6.61286201976959E+0003	 3.77332058517966E-0004
 6.61286320829267E+0003	 3.84537037883168E-0004
 6.61286439681576E+0003	 3.91904934587972E-0004
 6.61286558533884E+0003	 3.99440430034929E-0004
 6.61286677386193E+0003	 4.07148351232144E-0004
 6.61286796238501E+0003	 4.15033674753961E-0004
 6.61286915090809E+0003	 4.23101530772027E-0004
 6.61287033943118E+0003	 4.31357207156364E-0004
 6.61287152795426E+0003	 4.39806153645912E-0004
 6.61287271647735E+0003	 4.48453986087963E-0004
 6.61287390500043E+0003	 4.57306490745803E-0004
 6.61287509352352E+0003	 4.66369628673773E-0004
 6.61287628204660E+0003	 4.75649540158867E-0004
 6.61287747056968E+0003	 4.85152549227890E-0004
 6.61287865909277E+0003	 4.94885168219093E-0004
 6.61287984761585E+0003	 5.04854102417071E-0004
 6.61288103613894E+0003	 5.15066254749644E-0004
 6.61288222466202E+0003	 5.25528730545299E-0004
 6.61288341318511E+0003	 5.36248842349650E-0004
 6.61288460170819E+0003	 5.47234114799299E-0004
 6.61288579023127E+0003	 5.58492289551302E-0004
 6.61288697875436E+0003	 5.70031330266369E-0004
 6.61288816727744E+0003	 5.81859427643798E-0004
 6.61288935580053E+0003	 5.93985004505986E-0004
 6.61289054432361E+0003	 6.06416720930266E-0004
 6.61289173284670E+0003	 6.19163479425702E-0004
 6.61289292136978E+0003	 6.32234430152264E-0004
 6.61289410989286E+0003	 6.45638976179798E-0004
 6.61289529841595E+0003	 6.59386778783942E-0004
 6.61289648693903E+0003	 6.73487762776132E-0004
 6.61289767546212E+0003	 6.87952121864559E-0004
 6.61289886398520E+0003	 7.02790324042968E-0004
 6.61290005250828E+0003	 7.18013117003912E-0004
 6.61290124103137E+0003	 7.33631533573004E-0004
 6.61290242955445E+0003	 7.49656897160584E-0004
 6.61290361807754E+0003	 7.66100827227012E-0004
 6.61290480660062E+0003	 7.82975244757756E-0004
 6.61290599512371E+0003	 8.00292377744204E-0004
 6.61290718364679E+0003	 8.18064766666062E-0004
 6.61290837216987E+0003	 8.36305269971062E-0004
 6.61290956069296E+0003	 8.55027069547501E-0004
 6.61291074921604E+0003	 8.74243676185084E-0004
 6.61291193773913E+0003	 8.93968935019347E-0004
 6.61291312626221E+0003	 9.14217030954840E-0004
 6.61291431478530E+0003	 9.35002494062090E-0004
 6.61291550330838E+0003	 9.56340204943273E-0004
 6.61291669183146E+0003	 9.78245400061359E-0004
 6.61291788035455E+0003	 1.00073367702739E-0003
 6.61291906887763E+0003	 1.02382099984047E-0003
 6.61292025740072E+0003	 1.04752370407477E-0003
 6.61292144592380E+0003	 1.07185850200810E-0003
 6.61292263444689E+0003	 1.09684248768585E-0003
 6.61292382296997E+0003	 1.12249314191489E-0003
 6.61292501149305E+0003	 1.14882833718094E-0003
 6.61292620001614E+0003	 1.17586634248367E-0003
 6.61292738853922E+0003	 1.20362582808307E-0003
 6.61292857706231E+0003	 1.23212587015097E-0003
 6.61292976558539E+0003	 1.26138595532129E-0003
 6.61293095410847E+0003	 1.29142598513252E-0003
 6.61293214263156E+0003	 1.32226628035599E-0003
 6.61293333115464E+0003	 1.35392758520330E-0003
 6.61293451967773E+0003	 1.38643107140632E-0003
 6.61293570820081E+0003	 1.41979834216297E-0003
 6.61293689672390E+0003	 1.45405143594218E-0003
 6.61293808524698E+0003	 1.48921283014116E-0003
 6.61293927377006E+0003	 1.52530544458821E-0003
 6.61294046229315E+0003	 1.56235264488422E-0003
 6.61294165081623E+0003	 1.60037824557611E-0003
 6.61294283933932E+0003	 1.63940651315525E-0003
 6.61294402786240E+0003	 1.67946216887409E-0003
 6.61294521638549E+0003	 1.72057039137414E-0003
 6.61294640490857E+0003	 1.76275681911860E-0003
 6.61294759343165E+0003	 1.80604755262262E-0003
 6.61294878195474E+0003	 1.85046915647474E-0003
 6.61294997047782E+0003	 1.89604866114259E-0003
 6.61295115900091E+0003	 1.94281356455638E-0003
 6.61295234752399E+0003	 1.99079183346350E-0003
 6.61295353604708E+0003	 2.04001190454778E-0003
 6.61295472457016E+0003	 2.09050268530705E-0003
 6.61295591309324E+0003	 2.14229355468262E-0003
 6.61295710161633E+0003	 2.19541436343461E-0003
 6.61295829013941E+0003	 2.24989543425687E-0003
 6.61295947866250E+0003	 2.30576756162574E-0003
 6.61296066718558E+0003	 2.36306201137667E-0003
 6.61296185570867E+0003	 2.42181052000321E-0003
 6.61296304423175E+0003	 2.48204529367272E-0003
 6.61296423275483E+0003	 2.54379900695357E-0003
 6.61296542127792E+0003	 2.60710480124867E-0003
 6.61296660980100E+0003	 2.67199628293033E-0003
 6.61296779832409E+0003	 2.73850752117177E-0003
 6.61296898684717E+0003	 2.80667304547067E-0003
 6.61297017537025E+0003	 2.87652784286055E-0003
 6.61297136389334E+0003	 2.94810735480574E-0003
 6.61297255241642E+0003	 3.02144747377627E-0003
 6.61297374093951E+0003	 3.09658453949900E-0003
 6.61297492946259E+0003	 3.17355533488165E-0003
 6.61297611798568E+0003	 3.25239708160676E-0003
 6.61297730650876E+0003	 3.33314743539277E-0003
 6.61297849503184E+0003	 3.41584448091967E-0003
 6.61297968355493E+0003	 3.50052672641718E-0003
 6.61298087207801E+0003	 3.58723309791350E-0003
 6.61298206060110E+0003	 3.67600293314304E-0003
 6.61298324912418E+0003	 3.76687597511203E-0003
 6.61298443764727E+0003	 3.85989236532090E-0003
 6.61298562617035E+0003	 3.95509263664309E-0003
 6.61298681469343E+0003	 4.05251770585997E-0003
 6.61298800321652E+0003	 4.15220886585187E-0003
 6.61298919173960E+0003	 4.25420777744601E-0003
 6.61299038026269E+0003	 4.35855646092188E-0003
 6.61299156878577E+0003	 4.46529728717548E-0003
 6.61299275730886E+0003	 4.57447296854390E-0003
 6.61299394583194E+0003	 4.68612654929229E-0003
 6.61299513435502E+0003	 4.80030139576552E-0003
 6.61299632287811E+0003	 4.91704118620734E-0003
 6.61299751140119E+0003	 5.03638990024986E-0003
 6.61299869992428E+0003	 5.15839180807734E-0003
 6.61299988844736E+0003	 5.28309145926782E-0003
 6.61300107697044E+0003	 5.41053367131684E-0003
 6.61300226549353E+0003	 5.54076351784821E-0003
 6.61300345401661E+0003	 5.67382631651670E-0003
 6.61300464253970E+0003	 5.80976761660790E-0003
 6.61300583106278E+0003	 5.94863318634163E-0003
 6.61300701958587E+0003	 6.09046899988453E-0003
 6.61300820810895E+0003	 6.23532122407870E-0003
 6.61300939663203E+0003	 6.38323620489340E-0003
 6.61301058515512E+0003	 6.53426045360704E-0003
 6.61301177367820E+0003	 6.68844063272736E-0003
 6.61301296220129E+0003	 6.84582354165739E-0003
 6.61301415072437E+0003	 7.00645610211636E-0003
 6.61301533924746E+0003	 7.17038534332371E-0003
 6.61301652777054E+0003	 7.33765838695560E-0003
 6.61301771629362E+0003	 7.50832243188345E-0003
 6.61301890481671E+0003	 7.68242473870394E-0003
 6.61302009333979E+0003	 7.86001261407107E-0003
 6.61302128186288E+0003	 8.04113339484020E-0003
 6.61302247038596E+0003	 8.22583443203516E-0003
 6.61302365890905E+0003	 8.41416307464903E-0003
 6.61302484743213E+0003	 8.60616665329029E-0003
 6.61302603595521E+0003	 8.80189246368528E-0003
 6.61302722447830E+0003	 9.00138775004945E-0003
 6.61302841300138E+0003	 9.20469968833861E-0003
 6.61302960152447E+0003	 9.41187536939300E-0003
 6.61303079004755E+0003	 9.62296178198631E-0003
 6.61303197857064E+0003	 9.83800579579221E-0003
 6.61303316709372E+0003	 1.00570541442814E-0002
 6.61303435561680E+0003	 1.02801534075619E-0002
 6.61303554413989E+0003	 1.05073499951757E-0002
 6.61303673266297E+0003	 1.07386901288646E-0002
 6.61303792118606E+0003	 1.09742198253200E-0002
 6.61303910970914E+0003	 1.12139848789277E-0002
 6.61304029823222E+0003	 1.14580308445229E-0002
 6.61304148675531E+0003	 1.17064030201691E-0002
 6.61304267527839E+0003	 1.19591464299721E-0002
 6.61304386380148E+0003	 1.22163058069466E-0002
 6.61304505232456E+0003	 1.24779255759445E-0002
 6.61304624084765E+0003	 1.27440498366619E-0002
 6.61304742937073E+0003	 1.30147223467369E-0002
 6.61304861789381E+0003	 1.32899865049513E-0002
 6.61304980641690E+0003	 1.35698853345502E-0002
 6.61305099493998E+0003	 1.38544614666928E-0002
 6.61305218346307E+0003	 1.41437571240469E-0002
 6.61305337198615E+0003	 1.44378141045403E-0002
 6.61305456050924E+0003	 1.47366737652829E-0002
 6.61305574903232E+0003	 1.50403770066705E-0002
 6.61305693755540E+0003	 1.53489642566837E-0002
 6.61305812607849E+0003	 1.56624754553945E-0002
 6.61305931460157E+0003	 1.59809500396916E-0002
 6.61306050312466E+0003	 1.63044269282367E-0002
 6.61306169164774E+0003	 1.66329445066640E-0002
 6.61306288017083E+0003	 1.69665406130318E-0002
 6.61306406869391E+0003	 1.73052525235402E-0002
 6.61306525721699E+0003	 1.76491169385227E-0002
 6.61306644574008E+0003	 1.79981699687238E-0002
 6.61306763426316E+0003	 1.83524471218712E-0002
 6.61306882278625E+0003	 1.87119832895525E-0002
 6.61307001130933E+0003	 1.90768127344063E-0002
 6.61307119983242E+0003	 1.94469690776347E-0002
 6.61307238835550E+0003	 1.98224852868472E-0002
 6.61307357687858E+0003	 2.02033936642424E-0002
 6.61307476540167E+0003	 2.05897258351359E-0002
 6.61307595392475E+0003	 2.09815127368413E-0002
 6.61307714244784E+0003	 2.13787846079093E-0002
 6.61307833097092E+0003	 2.17815709777336E-0002
 6.61307951949400E+0003	 2.21899006565259E-0002
 6.61308070801709E+0003	 2.26038017256681E-0002
 6.61308189654017E+0003	 2.30233015284435E-0002
 6.61308308506326E+0003	 2.34484266611529E-0002
 6.61308427358634E+0003	 2.38792029646182E-0002
 6.61308546210943E+0003	 2.43156555160766E-0002
 6.61308665063251E+0003	 2.47578086214677E-0002
 6.61308783915559E+0003	 2.52056858081156E-0002
